#DeltaTime, Location Error, Velocity Error
/InverseX
8.93097e-12, 0.000195674, 171723
7.44247e-12, 0.000163119, 143202
6.37926e-12, 0.000139851, 122806
5.58185e-12, 0.000122393, 107495
4.96165e-12, 0.000108809, 95578.7
4.46548e-12, 9.79399e-05, 86040.7
4.05953e-12, 8.90447e-05, 78233.5
3.72124e-12, 8.16307e-05, 71725.3
3.43499e-12, 7.53565e-05, 66216.8
3.18963e-12, 6.99779e-05, 61494
2.97699e-12, 6.53159e-05, 57400.1
2.79093e-12, 6.12363e-05, 53817.2
2.62675e-12, 5.76364e-05, 50655.3
2.48082e-12, 5.44362e-05, 47844.4
2.35025e-12, 5.15727e-05, 45329
2.23274e-12, 4.89954e-05, 43064.9
2.12642e-12, 4.66634e-05, 41016.2
2.02977e-12, 4.45434e-05, 39153.6
1.94151e-12, 4.26076e-05, 37452.8
1.86062e-12, 4.0833e-05, 35893.6
1.78619e-12, 3.92004e-05, 34459
1.71749e-12, 3.76933e-05, 33134.7
1.65388e-12, 3.62978e-05, 31908.5
1.59482e-12, 3.50019e-05, 30769.7
1.53982e-12, 3.37954e-05, 29709.4
1.48849e-12, 3.26692e-05, 28719.8
1.44048e-12, 3.16157e-05, 27794
1.39546e-12, 3.06281e-05, 26926
1.35318e-12, 2.97002e-05, 26110.5
1.31338e-12, 2.8827e-05, 25343.1
1.27585e-12, 2.80036e-05, 24619.4
1.24041e-12, 2.72259e-05, 23935.9
1.20689e-12, 2.64903e-05, 23289.4
1.17513e-12, 2.57934e-05, 22676.8
1.145e-12, 2.51322e-05, 22095.7
1.11637e-12, 2.4504e-05, 21543.6
1.08914e-12, 2.39065e-05, 21018.4
1.06321e-12, 2.33375e-05, 20518.2
1.03848e-12, 2.27949e-05, 20041.2
1.01488e-12, 2.22769e-05, 19586
9.9233e-13, 2.1782e-05, 19150.9
9.70757e-13, 2.13086e-05, 18734.8
9.50103e-13, 2.08553e-05, 18336.3
9.30309e-13, 2.04209e-05, 17954.5
9.11323e-13, 2.00042e-05, 17588.2
8.93097e-13, 1.96042e-05, 17236.6
8.75585e-13, 1.92199e-05, 16898.8
8.58747e-13, 1.88504e-05, 16573.9
8.42544e-13, 1.84948e-05, 16261.3
8.26941e-13, 1.81524e-05, 15960.3
8.11906e-13, 1.78224e-05, 15670.2
7.97408e-13, 1.75042e-05, 15390.5
7.83418e-13, 1.71971e-05, 15120.6
7.69911e-13, 1.69007e-05, 14860
7.56862e-13, 1.66143e-05, 14608.2
7.44247e-13, 1.63374e-05, 14364.8
7.32046e-13, 1.60696e-05, 14129.4
7.20239e-13, 1.58105e-05, 13901.6
7.08807e-13, 1.55596e-05, 13681
6.97732e-13, 1.53165e-05, 13467.3
6.86997e-13, 1.50809e-05, 13260.2
6.76588e-13, 1.48524e-05, 13059.4
6.6649e-13, 1.46308e-05, 12864.5
6.56689e-13, 1.44157e-05, 12675.4
6.47172e-13, 1.42068e-05, 12491.7
6.37926e-13, 1.40039e-05, 12313.3
6.28941e-13, 1.38066e-05, 12139.9
6.20206e-13, 1.36149e-05, 11971.4
6.1171e-13, 1.34284e-05, 11807.4
6.03444e-13, 1.3247e-05, 11647.9
5.95398e-13, 1.30704e-05, 11492.7
5.87564e-13, 1.28984e-05, 11341.5
5.79933e-13, 1.27309e-05, 11194.2
5.72498e-13, 1.25678e-05, 11050.8
5.65251e-13, 1.24087e-05, 10910.9
5.58185e-13, 1.22536e-05, 10774.6
5.51294e-13, 1.21023e-05, 10641.6
5.44571e-13, 1.19548e-05, 10511.8
5.3801e-13, 1.18108e-05, 10385.2
5.31605e-13, 1.16702e-05, 10261.6
5.25351e-13, 1.15329e-05, 10140.9
5.19242e-13, 1.13988e-05, 10023
5.13274e-13, 1.12678e-05, 9907.84
5.07441e-13, 1.11398e-05, 9795.28
5.0174e-13, 1.10146e-05, 9685.24
4.96165e-13, 1.08922e-05, 9577.65
4.90712e-13, 1.07726e-05, 9472.43
4.85379e-13, 1.06555e-05, 9369.49
4.8016e-13, 1.05409e-05, 9268.77
4.75051e-13, 1.04288e-05, 9170.18
4.70051e-13, 1.0319e-05, 9073.68
4.65155e-13, 1.02116e-05, 8979.18
4.60359e-13, 1.01063e-05, 8886.63
4.55662e-13, 1.00032e-05, 8795.97
4.51059e-13, 9.90214e-06, 8707.14
4.46548e-13, 9.80313e-06, 8620.09
4.42127e-13, 9.70608e-06, 8534.76
4.37792e-13, 9.61093e-06, 8451.1
4.33542e-13, 9.51763e-06, 8369.07
4.29373e-13, 9.42613e-06, 8288.61
4.25284e-13, 9.33636e-06, 8209.69
4.21272e-13, 9.24829e-06, 8132.25
4.17335e-13, 9.16187e-06, 8056.26
4.13471e-13, 9.07704e-06, 7981.68
4.09677e-13, 8.99378e-06, 7908.47
4.05953e-13, 8.91202e-06, 7836.59
4.02296e-13, 8.83174e-06, 7766
3.98704e-13, 8.75289e-06, 7696.67
3.95176e-13, 8.67544e-06, 7628.58
3.91709e-13, 8.59935e-06, 7561.67
3.88303e-13, 8.52458e-06, 7495.93
3.84955e-13, 8.4511e-06, 7431.32
3.81665e-13, 8.37887e-06, 7367.82
3.78431e-13, 8.30787e-06, 7305.39
3.75251e-13, 8.23806e-06, 7244.01
3.72124e-13, 8.16942e-06, 7183.65
3.69048e-13, 8.10191e-06, 7124.29
3.66023e-13, 8.0355e-06, 7065.91
3.63047e-13, 7.97018e-06, 7008.47
3.6012e-13, 7.90591e-06, 6951.96
3.57239e-13, 7.84267e-06, 6896.35
3.54403e-13, 7.78043e-06, 6841.63
3.51613e-13, 7.71917e-06, 6787.77
3.48866e-13, 7.65887e-06, 6734.75
3.46162e-13, 7.5995e-06, 6682.55
3.43499e-13, 7.54105e-06, 6631.15
3.40877e-13, 7.48349e-06, 6580.54
3.38294e-13, 7.4268e-06, 6530.69
3.35751e-13, 7.37096e-06, 6481.6
3.33245e-13, 7.31596e-06, 6433.24
3.30777e-13, 7.26177e-06, 6385.59
3.28344e-13, 7.20838e-06, 6338.64
3.25948e-13, 7.15577e-06, 6292.38
3.23586e-13, 7.10392e-06, 6246.79
3.21258e-13, 7.05282e-06, 6201.86
3.18963e-13, 7.00244e-06, 6157.57
3.16701e-13, 6.95278e-06, 6113.9
3.14471e-13, 6.90382e-06, 6070.85
3.12272e-13, 6.85555e-06, 6028.41
3.10103e-13, 6.80794e-06, 5986.55
3.07964e-13, 6.761e-06, 5945.27
3.05855e-13, 6.71469e-06, 5904.55
3.03774e-13, 6.66902e-06, 5864.39
3.01722e-13, 6.62396e-06, 5824.77
2.99697e-13, 6.57951e-06, 5785.68
2.97699e-13, 6.53565e-06, 5747.12
2.95727e-13, 6.49237e-06, 5709.06
2.93782e-13, 6.44966e-06, 5671.51
2.91862e-13, 6.4075e-06, 5634.44
2.89966e-13, 6.3659e-06, 5597.86
2.88096e-13, 6.32483e-06, 5561.75
2.86249e-13, 6.28429e-06, 5526.1
2.84426e-13, 6.24427e-06, 5490.91
2.82626e-13, 6.20475e-06, 5456.16
2.80848e-13, 6.16573e-06, 5421.85
2.79093e-13, 6.12719e-06, 5387.97
2.77359e-13, 6.08914e-06, 5354.51
2.75647e-13, 6.05155e-06, 5321.46
2.73956e-13, 6.01443e-06, 5288.82
2.72286e-13, 5.97776e-06, 5256.57
2.70635e-13, 5.94153e-06, 5224.72
2.69005e-13, 5.90574e-06, 5193.25
2.67394e-13, 5.87038e-06, 5162.15
2.65803e-13, 5.83544e-06, 5131.43
2.6423e-13, 5.80091e-06, 5101.07
2.62675e-13, 5.76679e-06, 5071.07
2.61139e-13, 5.73307e-06, 5041.42
2.59621e-13, 5.69974e-06, 5012.11
2.5812e-13, 5.6668e-06, 4983.14
2.56637e-13, 5.63423e-06, 4954.51
2.5517e-13, 5.60204e-06, 4926.2
2.53721e-13, 5.57021e-06, 4898.21
2.52287e-13, 5.53874e-06, 4870.54
2.5087e-13, 5.50763e-06, 4843.18
2.49468e-13, 5.47686e-06, 4816.13
2.48082e-13, 5.44643e-06, 4789.37
2.46712e-13, 5.41634e-06, 4762.92
2.45356e-13, 5.38659e-06, 4736.75
2.44015e-13, 5.35715e-06, 4710.87
2.42689e-13, 5.32804e-06, 4685.27
2.41377e-13, 5.29924e-06, 4659.95
2.4008e-13, 5.27075e-06, 4634.9
2.38796e-13, 5.24257e-06, 4610.11
2.37526e-13, 5.21468e-06, 4585.59
2.36269e-13, 5.18709e-06, 4561.33
2.35025e-13, 5.15979e-06, 4537.33
2.33795e-13, 5.13278e-06, 4513.58
2.32577e-13, 5.10605e-06, 4490.07
2.31372e-13, 5.07959e-06, 4466.81
2.3018e-13, 5.05341e-06, 4443.79
2.28999e-13, 5.0275e-06, 4421
2.27831e-13, 5.00185e-06, 4398.45
2.26674e-13, 4.97646e-06, 4376.12
2.25529e-13, 4.95133e-06, 4354.02
2.24396e-13, 4.92645e-06, 4332.14
2.23274e-13, 4.90182e-06, 4310.49
2.22163e-13, 4.87743e-06, 4289.04
2.21064e-13, 4.85329e-06, 4267.81
2.19975e-13, 4.82938e-06, 4246.79
2.18896e-13, 4.80571e-06, 4225.98
2.17828e-13, 4.78227e-06, 4205.36
2.16771e-13, 4.75905e-06, 4184.95
2.15724e-13, 4.73606e-06, 4164.74
2.14687e-13, 4.7133e-06, 4144.71
2.13659e-13, 4.69075e-06, 4124.89
2.12642e-13, 4.66841e-06, 4105.25
2.11634e-13, 4.64629e-06, 4085.79
2.10636e-13, 4.62437e-06, 4066.52
2.09647e-13, 4.60266e-06, 4047.43
2.08667e-13, 4.58115e-06, 4028.52
2.07697e-13, 4.55985e-06, 4009.78
2.06735e-13, 4.53874e-06, 3991.22
2.05783e-13, 4.51782e-06, 3972.83
2.04839e-13, 4.4971e-06, 3954.61
2.03903e-13, 4.47657e-06, 3936.55
2.02977e-13, 4.45622e-06, 3918.66
2.02058e-13, 4.43606e-06, 3900.93
2.01148e-13, 4.41607e-06, 3883.36
2.00246e-13, 4.39627e-06, 3865.95
1.99352e-13, 4.37665e-06, 3848.69
1.98466e-13, 4.3572e-06, 3831.59
1.97588e-13, 4.33792e-06, 3814.63
1.96717e-13, 4.31881e-06, 3797.83
1.95855e-13, 4.29987e-06, 3781.18
1.94999e-13, 4.28109e-06, 3764.67
1.94151e-13, 4.26248e-06, 3748.3
1.93311e-13, 4.24403e-06, 3732.07
1.92478e-13, 4.22574e-06, 3715.99
1.91652e-13, 4.2076e-06, 3700.04
1.90833e-13, 4.18962e-06, 3684.23
1.90021e-13, 4.17179e-06, 3668.56
1.89215e-13, 4.15412e-06, 3653.01
1.88417e-13, 4.13659e-06, 3637.6
1.87625e-13, 4.11921e-06, 3622.32
1.8684e-13, 4.10197e-06, 3607.16
1.86062e-13, 4.08488e-06, 3592.13
1.8529e-13, 4.06793e-06, 3577.23
1.84524e-13, 4.05113e-06, 3562.45
1.83765e-13, 4.03445e-06, 3547.79
1.83012e-13, 4.01792e-06, 3533.25
1.82265e-13, 4.00152e-06, 3518.83
1.81524e-13, 3.98526e-06, 3504.53
1.80789e-13, 3.96912e-06, 3490.34
1.8006e-13, 3.95312e-06, 3476.27
1.79337e-13, 3.93724e-06, 3462.31
1.78619e-13, 3.92149e-06, 3448.46
1.77908e-13, 3.90587e-06, 3434.72
1.77202e-13, 3.89037e-06, 3421.09
1.76501e-13, 3.875e-06, 3407.57
1.75806e-13, 3.85974e-06, 3394.16
1.75117e-13, 3.84461e-06, 3380.85
1.74433e-13, 3.82959e-06, 3367.64
1.73754e-13, 3.81469e-06, 3354.54
1.73081e-13, 3.7999e-06, 3341.54
1.72412e-13, 3.78523e-06, 3328.64
1.71749e-13, 3.77067e-06, 3315.84
1.71091e-13, 3.75623e-06, 3303.13
1.70438e-13, 3.74189e-06, 3290.53
1.6979e-13, 3.72766e-06, 3278.02
1.69147e-13, 3.71354e-06, 3265.6
1.68509e-13, 3.69953e-06, 3253.28
1.67875e-13, 3.68562e-06, 3241.05
1.67247e-13, 3.67182e-06, 3228.91
1.66623e-13, 3.65812e-06, 3216.86
1.66003e-13, 3.64452e-06, 3204.91
1.65388e-13, 3.63102e-06, 3193.04
1.64778e-13, 3.61763e-06, 3181.26
1.64172e-13, 3.60433e-06, 3169.56
1.63571e-13, 3.59112e-06, 3157.95
1.62974e-13, 3.57802e-06, 3146.43
1.62381e-13, 3.56501e-06, 3134.99
1.61793e-13, 3.55209e-06, 3123.63
1.61209e-13, 3.53927e-06, 3112.35
1.60629e-13, 3.52654e-06, 3101.16
1.60053e-13, 3.5139e-06, 3090.04
1.59482e-13, 3.50135e-06, 3079.01
1.58914e-13, 3.48889e-06, 3068.05
1.5835e-13, 3.47652e-06, 3057.17
1.57791e-13, 3.46423e-06, 3046.37
1.57235e-13, 3.45204e-06, 3035.65
1.56684e-13, 3.43993e-06, 3025
1.56136e-13, 3.4279e-06, 3014.42
1.55592e-13, 3.41595e-06, 3003.92
1.55052e-13, 3.40409e-06, 2993.49
1.54515e-13, 3.39232e-06, 2983.13
1.53982e-13, 3.38062e-06, 2972.84
1.53453e-13, 3.369e-06, 2962.63
1.52928e-13, 3.35746e-06, 2952.48
1.52406e-13, 3.34601e-06, 2942.41
1.51887e-13, 3.33463e-06, 2932.4
1.51372e-13, 3.32332e-06, 2922.46
1.50861e-13, 3.31209e-06, 2912.59
1.50353e-13, 3.30094e-06, 2902.78
1.49848e-13, 3.28987e-06, 2893.04
1.49347e-13, 3.27886e-06, 2883.37
1.48849e-13, 3.26793e-06, 2873.76
1.48355e-13, 3.25708e-06, 2864.21
1.47864e-13, 3.24629e-06, 2854.73
1.47376e-13, 3.23558e-06, 2845.3
1.46891e-13, 3.22494e-06, 2835.95
1.46409e-13, 3.21436e-06, 2826.65
1.45931e-13, 3.20386e-06, 2817.41
1.45455e-13, 3.19342e-06, 2808.24
1.44983e-13, 3.18306e-06, 2799.12
1.44514e-13, 3.17276e-06, 2790.06
1.44048e-13, 3.16252e-06, 2781.06
1.43585e-13, 3.15235e-06, 2772.12
1.43124e-13, 3.14225e-06, 2763.23
1.42667e-13, 3.13221e-06, 2754.41
1.42213e-13, 3.12224e-06, 2745.64
1.41761e-13, 3.11232e-06, 2736.92
1.41313e-13, 3.10248e-06, 2728.26
1.40867e-13, 3.09269e-06, 2719.65
1.40424e-13, 3.08296e-06, 2711.1
1.39984e-13, 3.0733e-06, 2702.6
1.39546e-13, 3.0637e-06, 2694.16
1.39112e-13, 3.05415e-06, 2685.77
1.3868e-13, 3.04467e-06, 2677.43
1.3825e-13, 3.03524e-06, 2669.14
1.37824e-13, 3.02587e-06, 2660.9
1.37399e-13, 3.01656e-06, 2652.71
1.36978e-13, 3.00731e-06, 2644.58
1.36559e-13, 2.99811e-06, 2636.49
1.36143e-13, 2.98897e-06, 2628.45
1.35729e-13, 2.97989e-06, 2620.46
1.35318e-13, 2.97086e-06, 2612.52
1.34909e-13, 2.96188e-06, 2604.63
1.34503e-13, 2.95296e-06, 2596.78
1.34099e-13, 2.9441e-06, 2588.99
1.33697e-13, 2.93528e-06, 2581.24
1.33298e-13, 2.92652e-06, 2573.53
1.32901e-13, 2.91781e-06, 2565.87
1.32507e-13, 2.90915e-06, 2558.26
1.32115e-13, 2.90055e-06, 2550.69
1.31725e-13, 2.89199e-06, 2543.17
1.31338e-13, 2.88348e-06, 2535.69
1.30953e-13, 2.87503e-06, 2528.25
1.3057e-13, 2.86662e-06, 2520.86
1.30189e-13, 2.85826e-06, 2513.51
1.29811e-13, 2.84996e-06, 2506.2
1.29434e-13, 2.8417e-06, 2498.94
1.2906e-13, 2.83348e-06, 2491.72
1.28688e-13, 2.82532e-06, 2484.54
1.28318e-13, 2.8172e-06, 2477.4
1.27951e-13, 2.80913e-06, 2470.3
1.27585e-13, 2.8011e-06, 2463.24
1.27222e-13, 2.79312e-06, 2456.23
1.2686e-13, 2.78519e-06, 2449.25
1.26501e-13, 2.7773e-06, 2442.31
1.26144e-13, 2.76945e-06, 2435.41
1.25788e-13, 2.76165e-06, 2428.55
1.25435e-13, 2.75389e-06, 2421.73
1.25084e-13, 2.74618e-06, 2414.95
1.24734e-13, 2.73851e-06, 2408.2
1.24387e-13, 2.73088e-06, 2401.49
1.24041e-13, 2.72329e-06, 2394.82
1.23698e-13, 2.71575e-06, 2388.19
1.23356e-13, 2.70825e-06, 2381.59
1.23016e-13, 2.70079e-06, 2375.03
1.22678e-13, 2.69337e-06, 2368.51
1.22342e-13, 2.68599e-06, 2362.02
1.22008e-13, 2.67865e-06, 2355.57
1.21675e-13, 2.67135e-06, 2349.15
1.21345e-13, 2.66409e-06, 2342.77
1.21016e-13, 2.65687e-06, 2336.42
1.20689e-13, 2.64969e-06, 2330.1
1.20363e-13, 2.64255e-06, 2323.82
1.2004e-13, 2.63545e-06, 2317.58
1.19718e-13, 2.62838e-06, 2311.36
1.19398e-13, 2.62136e-06, 2305.18
1.1908e-13, 2.61437e-06, 2299.04
1.18763e-13, 2.60741e-06, 2292.92
1.18448e-13, 2.6005e-06, 2286.84
1.18134e-13, 2.59362e-06, 2280.79
1.17823e-13, 2.58677e-06, 2274.77
1.17513e-13, 2.57997e-06, 2268.79
1.17204e-13, 2.5732e-06, 2262.83
1.16897e-13, 2.56646e-06, 2256.91
1.16592e-13, 2.55976e-06, 2251.02
1.16289e-13, 2.55309e-06, 2245.16
1.15987e-13, 2.54646e-06, 2239.32
1.15686e-13, 2.53987e-06, 2233.52
1.15387e-13, 2.5333e-06, 2227.75
1.1509e-13, 2.52677e-06, 2222.01
1.14794e-13, 2.52028e-06, 2216.3
1.145e-13, 2.51382e-06, 2210.62
1.14207e-13, 2.50739e-06, 2204.96
1.13915e-13, 2.50099e-06, 2199.34
1.13626e-13, 2.49463e-06, 2193.74
1.13337e-13, 2.4883e-06, 2188.17
1.1305e-13, 2.482e-06, 2182.64
1.12765e-13, 2.47573e-06, 2177.12
1.12481e-13, 2.46949e-06, 2171.64
1.12198e-13, 2.46329e-06, 2166.18
1.11917e-13, 2.45711e-06, 2160.76
1.11637e-13, 2.45097e-06, 2155.35
1.11359e-13, 2.44486e-06, 2149.98
1.11082e-13, 2.43878e-06, 2144.63
1.10806e-13, 2.43273e-06, 2139.31
1.10532e-13, 2.42671e-06, 2134.01
1.10259e-13, 2.42071e-06, 2128.75
1.09987e-13, 2.41475e-06, 2123.5
1.09717e-13, 2.40882e-06, 2118.29
1.09448e-13, 2.40292e-06, 2113.09
1.09181e-13, 2.39704e-06, 2107.93
1.08914e-13, 2.39119e-06, 2102.79
1.08649e-13, 2.38538e-06, 2097.67
1.08386e-13, 2.37959e-06, 2092.58
1.08123e-13, 2.37382e-06, 2087.51
1.07862e-13, 2.36809e-06, 2082.47
1.07602e-13, 2.36238e-06, 2077.45
1.07343e-13, 2.35671e-06, 2072.46
1.07086e-13, 2.35105e-06, 2067.49
1.0683e-13, 2.34543e-06, 2062.54
1.06575e-13, 2.33983e-06, 2057.62
1.06321e-13, 2.33426e-06, 2052.72
1.06068e-13, 2.32872e-06, 2047.85
1.05817e-13, 2.3232e-06, 2043
1.05567e-13, 2.31771e-06, 2038.17
1.05318e-13, 2.31224e-06, 2033.36
1.0507e-13, 2.3068e-06, 2028.57
1.04824e-13, 2.30139e-06, 2023.81
1.04578e-13, 2.296e-06, 2019.07
1.04334e-13, 2.29063e-06, 2014.36
1.04091e-13, 2.28529e-06, 2009.66
1.03848e-13, 2.27998e-06, 2004.99
1.03608e-13, 2.27469e-06, 2000.34
1.03368e-13, 2.26942e-06, 1995.71
1.03129e-13, 2.26418e-06, 1991.1
1.02891e-13, 2.25897e-06, 1986.51
1.02655e-13, 2.25377e-06, 1981.94
1.02419e-13, 2.2486e-06, 1977.4
1.02185e-13, 2.24346e-06, 1972.87
1.01952e-13, 2.23834e-06, 1968.37
1.01719e-13, 2.23324e-06, 1963.89
1.01488e-13, 2.22816e-06, 1959.42
1.01258e-13, 2.22311e-06, 1954.98
1.01029e-13, 2.21808e-06, 1950.56
1.00801e-13, 2.21307e-06, 1946.15
1.00574e-13, 2.20809e-06, 1941.77
1.00348e-13, 2.20313e-06, 1937.41
1.00123e-13, 2.19819e-06, 1933.06
9.9899e-14, 2.19327e-06, 1928.74
9.9676e-14, 2.18837e-06, 1924.43
9.9454e-14, 2.1835e-06, 1920.15
9.9233e-14, 2.17865e-06, 1915.88
9.90129e-14, 2.17382e-06, 1911.63
9.87939e-14, 2.16901e-06, 1907.4
9.85758e-14, 2.16422e-06, 1903.19
9.83587e-14, 2.15945e-06, 1899
9.81425e-14, 2.15471e-06, 1894.83
9.79273e-14, 2.14998e-06, 1890.67
9.7713e-14, 2.14528e-06, 1886.54
9.74996e-14, 2.14059e-06, 1882.42
9.72872e-14, 2.13593e-06, 1878.32
9.70757e-14, 2.13129e-06, 1874.23
9.68651e-14, 2.12666e-06, 1870.17
9.66555e-14, 2.12206e-06, 1866.12
9.64467e-14, 2.11748e-06, 1862.09
9.62389e-14, 2.11291e-06, 1858.08
9.60319e-14, 2.10837e-06, 1854.08
9.58258e-14, 2.10385e-06, 1850.1
9.56206e-14, 2.09934e-06, 1846.14
9.54163e-14, 2.09486e-06, 1842.2
9.52129e-14, 2.09039e-06, 1838.27
9.50103e-14, 2.08594e-06, 1834.36
9.48086e-14, 2.08151e-06, 1830.46
9.46077e-14, 2.0771e-06, 1826.59
9.44077e-14, 2.07271e-06, 1822.72
9.42085e-14, 2.06834e-06, 1818.88
9.40102e-14, 2.06398e-06, 1815.05
9.38127e-14, 2.05965e-06, 1811.24
9.3616e-14, 2.05533e-06, 1807.44
9.34202e-14, 2.05103e-06, 1803.66
9.32251e-14, 2.04675e-06, 1799.89
9.30309e-14, 2.04249e-06, 1796.14
9.28375e-14, 2.03824e-06, 1792.41
9.26449e-14, 2.03401e-06, 1788.69
9.24531e-14, 2.0298e-06, 1784.99
9.22621e-14, 2.02561e-06, 1781.3
9.20718e-14, 2.02143e-06, 1777.63
9.18824e-14, 2.01727e-06, 1773.97
9.16937e-14, 2.01313e-06, 1770.33
9.15058e-14, 2.009e-06, 1766.7
9.13187e-14, 2.00489e-06, 1763.09
9.11323e-14, 2.0008e-06, 1759.49
9.09467e-14, 1.99673e-06, 1755.91
9.07619e-14, 1.99267e-06, 1752.34
9.05778e-14, 1.98863e-06, 1748.78
9.03944e-14, 1.9846e-06, 1745.24
9.02118e-14, 1.98059e-06, 1741.72
9.00299e-14, 1.9766e-06, 1738.21
8.98488e-14, 1.97262e-06, 1734.71
8.96683e-14, 1.96866e-06, 1731.23
8.94886e-14, 1.96472e-06, 1727.76
