#DeltaTime, Location Error, Velocity Error
/InverseX
5.68563e-10, 176.874, 1.73777e+10
4.73802e-10, 179.891, 1.73768e+10
4.06116e-10, 182.045, 1.73761e+10
3.55352e-10, 183.661, 1.73756e+10
3.15868e-10, 184.917, 1.73752e+10
2.84281e-10, 185.922, 1.73749e+10
2.58438e-10, 186.745, 1.73746e+10
2.36901e-10, 187.43, 1.73744e+10
2.18678e-10, 188.01, 1.73742e+10
2.03058e-10, 188.507, 1.73741e+10
1.89521e-10, 188.937, 1.7374e+10
1.77676e-10, 189.314, 1.73738e+10
1.67224e-10, 189.647, 1.73737e+10
1.57934e-10, 189.942, 1.73736e+10
1.49622e-10, 190.206, 1.73736e+10
1.42141e-10, 190.444, 1.73735e+10
1.35372e-10, 190.66, 1.73734e+10
1.29219e-10, 190.855, 1.73734e+10
1.23601e-10, 191.034, 1.73733e+10
1.18451e-10, 191.198, 1.73733e+10
1.13713e-10, 191.349, 1.73732e+10
1.09339e-10, 191.488, 1.73732e+10
1.05289e-10, 191.617, 1.73731e+10
1.01529e-10, 191.736, 1.73731e+10
9.80281e-11, 191.848, 1.73731e+10
9.47605e-11, 191.951, 1.7373e+10
9.17037e-11, 192.049, 1.7373e+10
8.8838e-11, 192.14, 1.7373e+10
8.61459e-11, 192.225, 1.73729e+10
8.36122e-11, 192.306, 1.73729e+10
8.12233e-11, 192.382, 1.73729e+10
7.89671e-11, 192.454, 1.73729e+10
7.68328e-11, 192.522, 1.73728e+10
7.48109e-11, 192.586, 1.73728e+10
7.28927e-11, 192.647, 1.73728e+10
7.10704e-11, 192.705, 1.73728e+10
6.93369e-11, 192.76, 1.73728e+10
6.76861e-11, 192.813, 1.73728e+10
6.6112e-11, 192.863, 1.73727e+10
6.46094e-11, 192.91, 1.73727e+10
6.31737e-11, 192.956, 1.73727e+10
6.18003e-11, 193, 1.73727e+10
6.04854e-11, 193.042, 1.73727e+10
5.92253e-11, 193.082, 1.73727e+10
5.80166e-11, 193.12, 1.73727e+10
5.68563e-11, 193.157, 1.73727e+10
5.57415e-11, 193.192, 1.73726e+10
5.46695e-11, 193.227, 1.73726e+10
5.3638e-11, 193.259, 1.73726e+10
5.26447e-11, 193.291, 1.73726e+10
5.16875e-11, 193.321, 1.73726e+10
5.07646e-11, 193.351, 1.73726e+10
4.98739e-11, 193.379, 1.73726e+10
4.9014e-11, 193.406, 1.73726e+10
4.81833e-11, 193.433, 1.73726e+10
4.73802e-11, 193.458, 1.73726e+10
4.66035e-11, 193.483, 1.73726e+10
4.58519e-11, 193.507, 1.73725e+10
4.5124e-11, 193.53, 1.73725e+10
4.4419e-11, 193.552, 1.73725e+10
4.37356e-11, 193.574, 1.73725e+10
4.3073e-11, 193.595, 1.73725e+10
4.24301e-11, 193.616, 1.73725e+10
4.18061e-11, 193.636, 1.73725e+10
4.12002e-11, 193.655, 1.73725e+10
4.06116e-11, 193.674, 1.73725e+10
4.00396e-11, 193.692, 1.73725e+10
3.94835e-11, 193.709, 1.73725e+10
3.89427e-11, 193.727, 1.73725e+10
3.84164e-11, 193.743, 1.73725e+10
3.79042e-11, 193.76, 1.73725e+10
3.74055e-11, 193.776, 1.73725e+10
3.69197e-11, 193.791, 1.73725e+10
3.64463e-11, 193.806, 1.73725e+10
3.5985e-11, 193.821, 1.73724e+10
3.55352e-11, 193.835, 1.73724e+10
3.50965e-11, 193.849, 1.73724e+10
3.46685e-11, 193.863, 1.73724e+10
3.42508e-11, 193.876, 1.73724e+10
3.3843e-11, 193.889, 1.73724e+10
3.34449e-11, 193.901, 1.73724e+10
3.3056e-11, 193.914, 1.73724e+10
3.2676e-11, 193.926, 1.73724e+10
3.23047e-11, 193.938, 1.73724e+10
3.19417e-11, 193.949, 1.73724e+10
3.15868e-11, 193.961, 1.73724e+10
3.12397e-11, 193.972, 1.73724e+10
3.09002e-11, 193.982, 1.73724e+10
3.05679e-11, 193.993, 1.73724e+10
3.02427e-11, 194.003, 1.73724e+10
2.99244e-11, 194.013, 1.73724e+10
2.96127e-11, 194.023, 1.73724e+10
2.93074e-11, 194.033, 1.73724e+10
2.90083e-11, 194.043, 1.73724e+10
2.87153e-11, 194.052, 1.73724e+10
2.84281e-11, 194.061, 1.73724e+10
2.81467e-11, 194.07, 1.73724e+10
2.78707e-11, 194.079, 1.73724e+10
2.76001e-11, 194.087, 1.73724e+10
2.73348e-11, 194.096, 1.73724e+10
2.70744e-11, 194.104, 1.73724e+10
2.6819e-11, 194.112, 1.73724e+10
2.65684e-11, 194.12, 1.73724e+10
2.63224e-11, 194.128, 1.73724e+10
2.60809e-11, 194.136, 1.73724e+10
2.58438e-11, 194.143, 1.73724e+10
2.56109e-11, 194.151, 1.73723e+10
2.53823e-11, 194.158, 1.73723e+10
2.51577e-11, 194.165, 1.73723e+10
2.4937e-11, 194.172, 1.73723e+10
2.47201e-11, 194.179, 1.73723e+10
2.4507e-11, 194.186, 1.73723e+10
2.42976e-11, 194.192, 1.73723e+10
2.40917e-11, 194.199, 1.73723e+10
2.38892e-11, 194.205, 1.73723e+10
2.36901e-11, 194.212, 1.73723e+10
2.34943e-11, 194.218, 1.73723e+10
2.33018e-11, 194.224, 1.73723e+10
2.31123e-11, 194.23, 1.73723e+10
2.29259e-11, 194.236, 1.73723e+10
2.27425e-11, 194.242, 1.73723e+10
2.2562e-11, 194.248, 1.73723e+10
2.23844e-11, 194.253, 1.73723e+10
2.22095e-11, 194.259, 1.73723e+10
2.20373e-11, 194.264, 1.73723e+10
2.18678e-11, 194.27, 1.73723e+10
2.17009e-11, 194.275, 1.73723e+10
2.15365e-11, 194.28, 1.73723e+10
2.13745e-11, 194.285, 1.73723e+10
2.1215e-11, 194.29, 1.73723e+10
2.10579e-11, 194.295, 1.73723e+10
2.09031e-11, 194.3, 1.73723e+10
2.07505e-11, 194.305, 1.73723e+10
2.06001e-11, 194.31, 1.73723e+10
2.04519e-11, 194.315, 1.73723e+10
2.03058e-11, 194.319, 1.73723e+10
2.01618e-11, 194.324, 1.73723e+10
2.00198e-11, 194.328, 1.73723e+10
1.98798e-11, 194.333, 1.73723e+10
1.97418e-11, 194.337, 1.73723e+10
1.96056e-11, 194.342, 1.73723e+10
1.94713e-11, 194.346, 1.73723e+10
1.93389e-11, 194.35, 1.73723e+10
1.92082e-11, 194.354, 1.73723e+10
1.90793e-11, 194.358, 1.73723e+10
1.89521e-11, 194.362, 1.73723e+10
1.88266e-11, 194.366, 1.73723e+10
1.87027e-11, 194.37, 1.73723e+10
1.85805e-11, 194.374, 1.73723e+10
1.84598e-11, 194.378, 1.73723e+10
1.83407e-11, 194.382, 1.73723e+10
1.82232e-11, 194.386, 1.73723e+10
1.81071e-11, 194.389, 1.73723e+10
1.79925e-11, 194.393, 1.73723e+10
1.78793e-11, 194.396, 1.73723e+10
1.77676e-11, 194.4, 1.73723e+10
1.76572e-11, 194.404, 1.73723e+10
1.75482e-11, 194.407, 1.73723e+10
1.74406e-11, 194.41, 1.73723e+10
1.73342e-11, 194.414, 1.73723e+10
1.72292e-11, 194.417, 1.73723e+10
1.71254e-11, 194.42, 1.73723e+10
1.70228e-11, 194.424, 1.73723e+10
1.69215e-11, 194.427, 1.73723e+10
1.68214e-11, 194.43, 1.73723e+10
1.67224e-11, 194.433, 1.73723e+10
1.66246e-11, 194.436, 1.73723e+10
1.6528e-11, 194.439, 1.73723e+10
1.64325e-11, 194.442, 1.73723e+10
1.6338e-11, 194.445, 1.73723e+10
1.62447e-11, 194.448, 1.73723e+10
1.61524e-11, 194.451, 1.73723e+10
1.60611e-11, 194.454, 1.73723e+10
1.59709e-11, 194.457, 1.73723e+10
1.58816e-11, 194.46, 1.73723e+10
1.57934e-11, 194.463, 1.73723e+10
1.57062e-11, 194.466, 1.73723e+10
1.56199e-11, 194.468, 1.73723e+10
1.55345e-11, 194.471, 1.73722e+10
1.54501e-11, 194.474, 1.73722e+10
1.53666e-11, 194.476, 1.73722e+10
1.5284e-11, 194.479, 1.73722e+10
1.52022e-11, 194.482, 1.73722e+10
1.51214e-11, 194.484, 1.73722e+10
1.50413e-11, 194.487, 1.73722e+10
1.49622e-11, 194.489, 1.73722e+10
1.48838e-11, 194.492, 1.73722e+10
1.48063e-11, 194.494, 1.73722e+10
1.47296e-11, 194.497, 1.73722e+10
1.46537e-11, 194.499, 1.73722e+10
1.45785e-11, 194.501, 1.73722e+10
1.45042e-11, 194.504, 1.73722e+10
1.44305e-11, 194.506, 1.73722e+10
1.43577e-11, 194.508, 1.73722e+10
1.42855e-11, 194.511, 1.73722e+10
1.42141e-11, 194.513, 1.73722e+10
1.41434e-11, 194.515, 1.73722e+10
1.40733e-11, 194.517, 1.73722e+10
1.4004e-11, 194.52, 1.73722e+10
1.39354e-11, 194.522, 1.73722e+10
1.38674e-11, 194.524, 1.73722e+10
1.38001e-11, 194.526, 1.73722e+10
1.37334e-11, 194.528, 1.73722e+10
1.36674e-11, 194.53, 1.73722e+10
1.3602e-11, 194.532, 1.73722e+10
1.35372e-11, 194.535, 1.73722e+10
1.34731e-11, 194.537, 1.73722e+10
1.34095e-11, 194.539, 1.73722e+10
1.33465e-11, 194.541, 1.73722e+10
1.32842e-11, 194.543, 1.73722e+10
1.32224e-11, 194.545, 1.73722e+10
1.31612e-11, 194.546, 1.73722e+10
1.31005e-11, 194.548, 1.73722e+10
1.30404e-11, 194.55, 1.73722e+10
1.29809e-11, 194.552, 1.73722e+10
1.29219e-11, 194.554, 1.73722e+10
1.28634e-11, 194.556, 1.73722e+10
1.28055e-11, 194.558, 1.73722e+10
1.2748e-11, 194.56, 1.73722e+10
1.26911e-11, 194.561, 1.73722e+10
1.26347e-11, 194.563, 1.73722e+10
1.25788e-11, 194.565, 1.73722e+10
1.25234e-11, 194.567, 1.73722e+10
1.24685e-11, 194.569, 1.73722e+10
1.2414e-11, 194.57, 1.73722e+10
1.23601e-11, 194.572, 1.73722e+10
1.23066e-11, 194.574, 1.73722e+10
1.22535e-11, 194.575, 1.73722e+10
1.22009e-11, 194.577, 1.73722e+10
1.21488e-11, 194.579, 1.73722e+10
1.20971e-11, 194.58, 1.73722e+10
1.20458e-11, 194.582, 1.73722e+10
1.1995e-11, 194.584, 1.73722e+10
1.19446e-11, 194.585, 1.73722e+10
1.18946e-11, 194.587, 1.73722e+10
1.18451e-11, 194.588, 1.73722e+10
1.17959e-11, 194.59, 1.73722e+10
1.17472e-11, 194.591, 1.73722e+10
1.16988e-11, 194.593, 1.73722e+10
1.16509e-11, 194.595, 1.73722e+10
1.16033e-11, 194.596, 1.73722e+10
1.15562e-11, 194.598, 1.73722e+10
1.15094e-11, 194.599, 1.73722e+10
1.1463e-11, 194.6, 1.73722e+10
1.14169e-11, 194.602, 1.73722e+10
1.13713e-11, 194.603, 1.73722e+10
1.1326e-11, 194.605, 1.73722e+10
1.1281e-11, 194.606, 1.73722e+10
1.12364e-11, 194.608, 1.73722e+10
1.11922e-11, 194.609, 1.73722e+10
1.11483e-11, 194.61, 1.73722e+10
1.11047e-11, 194.612, 1.73722e+10
1.10615e-11, 194.613, 1.73722e+10
1.10187e-11, 194.615, 1.73722e+10
1.09761e-11, 194.616, 1.73722e+10
1.09339e-11, 194.617, 1.73722e+10
1.0892e-11, 194.619, 1.73722e+10
1.08504e-11, 194.62, 1.73722e+10
1.08092e-11, 194.621, 1.73722e+10
1.07682e-11, 194.623, 1.73722e+10
1.07276e-11, 194.624, 1.73722e+10
1.06873e-11, 194.625, 1.73722e+10
1.06472e-11, 194.626, 1.73722e+10
1.06075e-11, 194.628, 1.73722e+10
1.05681e-11, 194.629, 1.73722e+10
1.05289e-11, 194.63, 1.73722e+10
1.04901e-11, 194.631, 1.73722e+10
1.04515e-11, 194.633, 1.73722e+10
1.04132e-11, 194.634, 1.73722e+10
1.03752e-11, 194.635, 1.73722e+10
1.03375e-11, 194.636, 1.73722e+10
1.03001e-11, 194.637, 1.73722e+10
1.02629e-11, 194.639, 1.73722e+10
1.0226e-11, 194.64, 1.73722e+10
1.01893e-11, 194.641, 1.73722e+10
1.01529e-11, 194.642, 1.73722e+10
1.01168e-11, 194.643, 1.73722e+10
1.00809e-11, 194.644, 1.73722e+10
1.00453e-11, 194.646, 1.73722e+10
1.00099e-11, 194.647, 1.73722e+10
9.97479e-12, 194.648, 1.73722e+10
9.93991e-12, 194.649, 1.73722e+10
9.90528e-12, 194.65, 1.73722e+10
9.87088e-12, 194.651, 1.73722e+10
9.83673e-12, 194.652, 1.73722e+10
9.80281e-12, 194.653, 1.73722e+10
9.76912e-12, 194.654, 1.73722e+10
9.73567e-12, 194.655, 1.73722e+10
9.70244e-12, 194.656, 1.73722e+10
9.66944e-12, 194.658, 1.73722e+10
9.63666e-12, 194.659, 1.73722e+10
9.6041e-12, 194.66, 1.73722e+10
9.57177e-12, 194.661, 1.73722e+10
9.53965e-12, 194.662, 1.73722e+10
9.50774e-12, 194.663, 1.73722e+10
9.47605e-12, 194.664, 1.73722e+10
9.44457e-12, 194.665, 1.73722e+10
9.41329e-12, 194.666, 1.73722e+10
9.38223e-12, 194.667, 1.73722e+10
9.35136e-12, 194.668, 1.73722e+10
9.3207e-12, 194.669, 1.73722e+10
9.29024e-12, 194.67, 1.73722e+10
9.25998e-12, 194.671, 1.73722e+10
9.22992e-12, 194.671, 1.73722e+10
9.20005e-12, 194.672, 1.73722e+10
9.17037e-12, 194.673, 1.73722e+10
9.14088e-12, 194.674, 1.73722e+10
9.11159e-12, 194.675, 1.73722e+10
9.08248e-12, 194.676, 1.73722e+10
9.05355e-12, 194.677, 1.73722e+10
9.02481e-12, 194.678, 1.73722e+10
8.99625e-12, 194.679, 1.73722e+10
8.96787e-12, 194.68, 1.73722e+10
8.93967e-12, 194.681, 1.73722e+10
8.91165e-12, 194.682, 1.73722e+10
8.8838e-12, 194.683, 1.73722e+10
8.85612e-12, 194.683, 1.73722e+10
8.82862e-12, 194.684, 1.73722e+10
8.80128e-12, 194.685, 1.73722e+10
8.77412e-12, 194.686, 1.73722e+10
8.74712e-12, 194.687, 1.73722e+10
8.72029e-12, 194.688, 1.73722e+10
8.69362e-12, 194.689, 1.73722e+10
8.66712e-12, 194.689, 1.73722e+10
8.64077e-12, 194.69, 1.73722e+10
8.61459e-12, 194.691, 1.73722e+10
8.58856e-12, 194.692, 1.73722e+10
8.5627e-12, 194.693, 1.73722e+10
8.53698e-12, 194.694, 1.73722e+10
8.51142e-12, 194.694, 1.73722e+10
8.48601e-12, 194.695, 1.73722e+10
8.46076e-12, 194.696, 1.73722e+10
8.43565e-12, 194.697, 1.73722e+10
8.41069e-12, 194.698, 1.73722e+10
8.38588e-12, 194.698, 1.73722e+10
8.36122e-12, 194.699, 1.73722e+10
8.3367e-12, 194.7, 1.73722e+10
8.31232e-12, 194.701, 1.73722e+10
8.28809e-12, 194.701, 1.73722e+10
8.264e-12, 194.702, 1.73722e+10
8.24004e-12, 194.703, 1.73722e+10
8.21623e-12, 194.704, 1.73722e+10
8.19255e-12, 194.704, 1.73722e+10
8.16901e-12, 194.705, 1.73722e+10
8.1456e-12, 194.706, 1.73722e+10
8.12233e-12, 194.707, 1.73722e+10
8.09919e-12, 194.707, 1.73722e+10
8.07618e-12, 194.708, 1.73722e+10
8.0533e-12, 194.709, 1.73722e+10
8.03055e-12, 194.71, 1.73722e+10
8.00793e-12, 194.71, 1.73722e+10
7.98543e-12, 194.711, 1.73722e+10
7.96307e-12, 194.712, 1.73722e+10
7.94082e-12, 194.712, 1.73722e+10
7.9187e-12, 194.713, 1.73722e+10
7.89671e-12, 194.714, 1.73722e+10
7.87483e-12, 194.715, 1.73722e+10
7.85308e-12, 194.715, 1.73722e+10
7.83145e-12, 194.716, 1.73722e+10
7.80993e-12, 194.717, 1.73722e+10
7.78853e-12, 194.717, 1.73722e+10
7.76725e-12, 194.718, 1.73722e+10
7.74609e-12, 194.719, 1.73722e+10
7.72504e-12, 194.719, 1.73722e+10
7.70411e-12, 194.72, 1.73722e+10
7.68328e-12, 194.721, 1.73722e+10
7.66257e-12, 194.721, 1.73722e+10
7.64198e-12, 194.722, 1.73722e+10
7.62149e-12, 194.723, 1.73722e+10
7.60111e-12, 194.723, 1.73722e+10
7.58084e-12, 194.724, 1.73722e+10
7.56068e-12, 194.725, 1.73722e+10
7.54062e-12, 194.725, 1.73722e+10
7.52067e-12, 194.726, 1.73722e+10
7.50083e-12, 194.726, 1.73722e+10
7.48109e-12, 194.727, 1.73722e+10
7.46146e-12, 194.728, 1.73722e+10
7.44192e-12, 194.728, 1.73722e+10
7.42249e-12, 194.729, 1.73722e+10
7.40316e-12, 194.73, 1.73722e+10
7.38393e-12, 194.73, 1.73722e+10
7.36481e-12, 194.731, 1.73722e+10
7.34577e-12, 194.731, 1.73722e+10
7.32684e-12, 194.732, 1.73722e+10
7.30801e-12, 194.733, 1.73722e+10
7.28927e-12, 194.733, 1.73722e+10
7.27063e-12, 194.734, 1.73722e+10
7.25208e-12, 194.734, 1.73722e+10
7.23363e-12, 194.735, 1.73722e+10
7.21527e-12, 194.736, 1.73722e+10
7.197e-12, 194.736, 1.73722e+10
7.17883e-12, 194.737, 1.73722e+10
7.16074e-12, 194.737, 1.73722e+10
7.14275e-12, 194.738, 1.73722e+10
7.12485e-12, 194.738, 1.73722e+10
7.10704e-12, 194.739, 1.73722e+10
7.08931e-12, 194.74, 1.73722e+10
7.07168e-12, 194.74, 1.73722e+10
7.05413e-12, 194.741, 1.73722e+10
7.03667e-12, 194.741, 1.73722e+10
7.0193e-12, 194.742, 1.73722e+10
7.00201e-12, 194.742, 1.73722e+10
6.9848e-12, 194.743, 1.73722e+10
6.96768e-12, 194.743, 1.73722e+10
6.95065e-12, 194.744, 1.73722e+10
6.93369e-12, 194.745, 1.73722e+10
6.91682e-12, 194.745, 1.73722e+10
6.90004e-12, 194.746, 1.73722e+10
6.88333e-12, 194.746, 1.73722e+10
6.8667e-12, 194.747, 1.73722e+10
6.85016e-12, 194.747, 1.73722e+10
6.83369e-12, 194.748, 1.73722e+10
6.8173e-12, 194.748, 1.73722e+10
6.80099e-12, 194.749, 1.73722e+10
6.78476e-12, 194.749, 1.73722e+10
6.76861e-12, 194.75, 1.73722e+10
6.75253e-12, 194.75, 1.73722e+10
6.73653e-12, 194.751, 1.73722e+10
6.7206e-12, 194.751, 1.73722e+10
6.70475e-12, 194.752, 1.73722e+10
6.68898e-12, 194.752, 1.73722e+10
6.67327e-12, 194.753, 1.73722e+10
6.65765e-12, 194.753, 1.73722e+10
6.64209e-12, 194.754, 1.73722e+10
6.62661e-12, 194.754, 1.73722e+10
6.6112e-12, 194.755, 1.73722e+10
6.59586e-12, 194.755, 1.73722e+10
6.58059e-12, 194.756, 1.73722e+10
6.56539e-12, 194.756, 1.73722e+10
6.55026e-12, 194.757, 1.73722e+10
6.53521e-12, 194.757, 1.73722e+10
6.52022e-12, 194.758, 1.73722e+10
6.5053e-12, 194.758, 1.73722e+10
6.49044e-12, 194.759, 1.73722e+10
6.47566e-12, 194.759, 1.73722e+10
6.46094e-12, 194.76, 1.73722e+10
6.44629e-12, 194.76, 1.73722e+10
6.43171e-12, 194.76, 1.73722e+10
6.41719e-12, 194.761, 1.73722e+10
6.40274e-12, 194.761, 1.73722e+10
6.38835e-12, 194.762, 1.73722e+10
6.37402e-12, 194.762, 1.73722e+10
6.35976e-12, 194.763, 1.73722e+10
6.34557e-12, 194.763, 1.73722e+10
6.33144e-12, 194.764, 1.73722e+10
6.31737e-12, 194.764, 1.73722e+10
6.30336e-12, 194.765, 1.73722e+10
6.28941e-12, 194.765, 1.73722e+10
6.27553e-12, 194.765, 1.73722e+10
6.26171e-12, 194.766, 1.73722e+10
6.24794e-12, 194.766, 1.73722e+10
6.23424e-12, 194.767, 1.73722e+10
6.2206e-12, 194.767, 1.73722e+10
6.20702e-12, 194.768, 1.73722e+10
6.1935e-12, 194.768, 1.73722e+10
6.18003e-12, 194.768, 1.73722e+10
6.16663e-12, 194.769, 1.73722e+10
6.15328e-12, 194.769, 1.73722e+10
6.13999e-12, 194.77, 1.73722e+10
6.12676e-12, 194.77, 1.73722e+10
6.11358e-12, 194.771, 1.73722e+10
6.10046e-12, 194.771, 1.73722e+10
6.0874e-12, 194.771, 1.73722e+10
6.07439e-12, 194.772, 1.73722e+10
6.06144e-12, 194.772, 1.73722e+10
6.04854e-12, 194.773, 1.73722e+10
6.0357e-12, 194.773, 1.73722e+10
6.02291e-12, 194.773, 1.73722e+10
6.01018e-12, 194.774, 1.73722e+10
5.9975e-12, 194.774, 1.73722e+10
5.98487e-12, 194.775, 1.73722e+10
5.9723e-12, 194.775, 1.73722e+10
5.95978e-12, 194.775, 1.73722e+10
5.94731e-12, 194.776, 1.73722e+10
5.9349e-12, 194.776, 1.73722e+10
5.92253e-12, 194.777, 1.73722e+10
5.91022e-12, 194.777, 1.73722e+10
5.89796e-12, 194.777, 1.73722e+10
5.88574e-12, 194.778, 1.73722e+10
5.87358e-12, 194.778, 1.73722e+10
5.86147e-12, 194.779, 1.73722e+10
5.84941e-12, 194.779, 1.73722e+10
5.8374e-12, 194.779, 1.73722e+10
5.82544e-12, 194.78, 1.73722e+10
5.81353e-12, 194.78, 1.73722e+10
5.80166e-12, 194.781, 1.73722e+10
5.78985e-12, 194.781, 1.73722e+10
5.77808e-12, 194.781, 1.73722e+10
5.76636e-12, 194.782, 1.73722e+10
5.75469e-12, 194.782, 1.73722e+10
5.74306e-12, 194.782, 1.73722e+10
5.73148e-12, 194.783, 1.73722e+10
5.71995e-12, 194.783, 1.73722e+10
5.70846e-12, 194.783, 1.73722e+10
5.69702e-12, 194.784, 1.73722e+10
